'Rho(norml. sqrt. toroid. flux)', 'q', 'Beam Ion Density(10^13 cm^-3)', 'Ion Density(10^13 cm^-3)', 'Elec Density(10^13 cm^-3)', 'Impurity Density(10^13 cm^-3)', 'Beam Ion Effective Temp(keV)', 'Ion Temp(keV)', 'Electron Temp(keV)', 'Beam Pressure(kPa)', 'Thermal Pressure(kPa)', 'Equil.Pressure(kPa)', 'Zeff', 'Tor Rot(kHz)', 'Tor Rot(10^5 m/s)', 'RF Ion Density(10^13 cm^-3)', 'RF Ion Effective Temp(keV)', 'RF Pressure(kPa)'
0.00000 1.49597 0.91618 5.08217 6.00137 0.00000 23.70199 5.83814 5.92550 34.79216 47.53795 56.97597 1.00000 0.00000 0.00000 0.00302 150.00000 0.72572
0.00331 1.49642 0.90640 5.09019 6.00091 0.00000 23.69968 5.83532 5.92492 34.41752 47.58990 56.96611 1.00000 0.00000 0.00000 0.00433 150.00000 1.04018
0.00662 1.49704 0.89673 5.09763 6.00046 0.00000 23.69736 5.83249 5.92434 34.04715 47.63644 56.95625 1.00000 0.00000 0.00000 0.00610 150.00000 1.46542
0.00993 1.49781 0.88718 5.10439 6.00001 0.00000 23.69505 5.82967 5.92376 33.68098 47.67651 56.94639 1.00000 0.00000 0.00000 0.00844 150.00000 2.02924
0.01324 1.49873 0.87773 5.11034 5.99956 0.00000 23.69273 5.82685 5.92318 33.31898 47.70896 56.93653 1.00000 0.00000 0.00000 0.01149 150.00000 2.76199
0.01656 1.49980 0.86838 5.11534 5.99910 0.00000 23.69042 5.82403 5.92260 32.96108 47.73257 56.92667 1.00000 0.00000 0.00000 0.01538 150.00000 3.69513
0.01987 1.50101 0.85915 5.11929 5.99865 0.00000 23.68810 5.82120 5.92203 32.60725 47.74620 56.91681 1.00000 0.00000 0.00000 0.02022 150.00000 4.85910
0.02318 1.50236 0.85001 5.12205 5.99820 0.00000 23.68579 5.81838 5.92145 32.25744 47.74883 56.90696 1.00000 0.00000 0.00000 0.02613 150.00000 6.28068
0.02649 1.50383 0.84098 5.12323 5.99744 0.00000 23.68190 5.81735 5.92047 31.90949 47.75139 56.89042 1.00000 0.00000 0.00000 0.03322 150.00000 7.98442
0.02980 1.50543 0.83205 5.12209 5.99613 0.00000 23.67515 5.81957 5.91879 31.56170 47.75900 56.86176 1.00000 0.00000 0.00000 0.04198 150.00000 10.08843
0.03311 1.50715 0.82322 5.11482 5.99481 0.00000 23.66841 5.82179 5.91710 31.21792 47.70941 56.83310 1.00000 0.00000 0.00000 0.05676 150.00000 13.64208
0.03642 1.50899 0.81450 5.08597 5.99350 0.00000 23.66166 5.82402 5.91541 30.87810 47.45836 56.80444 1.00000 0.00000 0.00000 0.09303 150.00000 22.35908
0.03973 1.51093 0.80586 5.03272 5.99218 0.00000 23.65491 5.82624 5.91373 30.54220 46.97944 56.77578 1.00000 0.00000 0.00000 0.15360 150.00000 36.91374
0.04304 1.51297 0.79733 5.01025 5.99026 0.00000 23.64500 5.83250 5.91125 30.20612 46.81995 56.73377 1.00000 0.00000 0.00000 0.18267 150.00000 43.90116
0.04635 1.51511 0.78889 5.04584 5.98810 0.00000 23.63392 5.84024 5.90848 29.87248 47.21516 56.68684 1.00000 0.00000 0.00000 0.15337 150.00000 36.85875
0.04967 1.51734 0.78055 5.08063 5.98595 0.00000 23.62284 5.84799 5.90571 29.54275 47.60375 56.63991 1.00000 0.00000 0.00000 0.12477 150.00000 29.98587
0.05298 1.51966 0.77230 5.08833 5.98380 0.00000 23.61176 5.85574 5.90294 29.21686 47.73904 56.59298 1.00000 0.00000 0.00000 0.12317 150.00000 29.60099
0.05629 1.52206 0.76415 5.08543 5.98157 0.00000 23.60023 5.86229 5.90006 28.89423 47.76524 56.54418 1.00000 0.00000 0.00000 0.13198 150.00000 31.71909
0.05960 1.52453 0.75609 5.08150 5.97860 0.00000 23.58491 5.85869 5.89623 28.57079 47.69902 56.47955 1.00000 0.00000 0.00000 0.14102 150.00000 33.89034
0.06291 1.52707 0.74811 5.07930 5.97564 0.00000 23.56959 5.85510 5.89240 28.25117 47.64914 56.41491 1.00000 0.00000 0.00000 0.14822 150.00000 35.62251
0.06622 1.52968 0.74023 5.07930 5.97268 0.00000 23.55427 5.85150 5.88857 27.93533 47.61990 56.35028 1.00000 0.00000 0.00000 0.15314 150.00000 36.80455
0.06953 1.53234 0.73244 5.08176 5.96971 0.00000 23.53895 5.84791 5.88474 27.62324 47.61362 56.28565 1.00000 0.00000 0.00000 0.15552 150.00000 37.37634
0.07284 1.53506 0.72473 5.08640 5.96637 0.00000 23.52164 5.84083 5.88041 27.31252 47.59944 56.21279 1.00000 0.00000 0.00000 0.15524 150.00000 37.30868
0.07615 1.53782 0.71711 5.09320 5.96262 0.00000 23.50217 5.82998 5.87554 27.00302 47.57455 56.13106 1.00000 0.00000 0.00000 0.15231 150.00000 36.60504
0.07946 1.54063 0.70958 5.10241 5.95887 0.00000 23.48271 5.81914 5.87068 26.69724 47.57190 56.04933 1.00000 0.00000 0.00000 0.14689 150.00000 35.30124
0.08278 1.54347 0.70213 5.11376 5.95513 0.00000 23.46325 5.80829 5.86581 26.39511 47.58887 55.96760 1.00000 0.00000 0.00000 0.13924 150.00000 33.46239
0.08609 1.54634 0.69477 5.12688 5.95138 0.00000 23.44378 5.79745 5.86095 26.09660 47.62189 55.88587 1.00000 0.00000 0.00000 0.12973 150.00000 31.17755
0.08940 1.54923 0.68749 5.14068 5.94697 0.00000 23.42085 5.78758 5.85521 25.79785 47.66881 55.79003 1.00000 0.00000 0.00000 0.11881 150.00000 28.55255
0.09271 1.55215 0.68029 5.15523 5.94246 0.00000 23.39733 5.77787 5.84933 25.50207 47.72356 55.69182 1.00000 0.00000 0.00000 0.10694 150.00000 25.70193
0.09602 1.55508 0.67317 5.17016 5.93795 0.00000 23.37382 5.76817 5.84345 25.20987 47.78135 55.59360 1.00000 0.00000 0.00000 0.09462 150.00000 22.74074
0.09933 1.55822 0.66613 5.18502 5.93344 0.00000 23.35030 5.75846 5.83758 24.92121 47.83804 55.49539 1.00000 0.00000 0.00000 0.08229 150.00000 19.77705
0.10264 1.56173 0.65917 5.19924 5.92876 0.00000 23.32587 5.74847 5.83147 24.63508 47.88608 55.39350 1.00000 0.00000 0.00000 0.07034 150.00000 16.90582
0.10595 1.56555 0.65229 5.21211 5.92351 0.00000 23.29837 5.73756 5.82459 24.34921 47.91346 55.27937 1.00000 0.00000 0.00000 0.05910 150.00000 14.20460
0.10926 1.56967 0.64549 5.22395 5.91826 0.00000 23.27087 5.72665 5.81772 24.06685 47.93098 55.16524 1.00000 0.00000 0.00000 0.04881 150.00000 11.73113
0.11258 1.57402 0.63876 5.23461 5.91300 0.00000 23.24338 5.71573 5.81084 23.78794 47.93728 55.05111 1.00000 0.00000 0.00000 0.03962 150.00000 9.52288
0.11589 1.57858 0.63211 5.24402 5.90775 0.00000 23.21588 5.70482 5.80397 23.51244 47.93172 54.93699 1.00000 0.00000 0.00000 0.03162 150.00000 7.59828
0.11920 1.58331 0.62554 5.25173 5.90206 0.00000 23.18601 5.69473 5.79650 23.23793 47.91723 54.81354 1.00000 0.00000 0.00000 0.02480 150.00000 5.95909
0.12251 1.58816 0.61904 5.25793 5.89609 0.00000 23.15459 5.68516 5.78865 22.96527 47.89332 54.68406 1.00000 0.00000 0.00000 0.01911 150.00000 4.59370
0.12582 1.59309 0.61261 5.26302 5.89011 0.00000 23.12318 5.67560 5.78080 22.69598 47.85901 54.55457 1.00000 0.00000 0.00000 0.01448 150.00000 3.48067
0.12913 1.59807 0.60626 5.26710 5.88414 0.00000 23.09177 5.66604 5.77294 22.43001 47.81541 54.42509 1.00000 0.00000 0.00000 0.01079 150.00000 2.59228
0.13244 1.60307 0.59997 5.27030 5.87817 0.00000 23.06035 5.65648 5.76509 22.16734 47.76372 54.29561 1.00000 0.00000 0.00000 0.00790 150.00000 1.89766
0.13575 1.60802 0.59376 5.27206 5.87150 0.00000 23.02515 5.64510 5.75629 21.90430 47.68362 54.15161 1.00000 0.00000 0.00000 0.00568 150.00000 1.36544
0.13906 1.61297 0.58762 5.27320 5.86483 0.00000 22.98989 5.63369 5.74747 21.64449 47.59746 54.00736 1.00000 0.00000 0.00000 0.00402 150.00000 0.96571
0.14237 1.61807 0.58154 5.27382 5.85815 0.00000 22.95462 5.62228 5.73865 21.38791 47.50668 53.86311 1.00000 0.00000 0.00000 0.00279 150.00000 0.67133
0.14569 1.62332 0.57554 5.27403 5.85148 0.00000 22.91935 5.61087 5.72984 21.13453 47.41221 53.71885 1.00000 0.00000 0.00000 0.00191 150.00000 0.45872
0.14900 1.62869 0.56960 5.27368 5.84456 0.00000 22.88273 5.59922 5.72068 20.88308 47.31053 53.56954 1.00000 0.00000 0.00000 0.00128 150.00000 0.30808
0.15231 1.63416 0.56373 5.27263 5.83721 0.00000 22.84367 5.58711 5.71092 20.63257 47.19886 53.41112 1.00000 0.00000 0.00000 0.00085 150.00000 0.20338
0.15562 1.63972 0.55793 5.27138 5.82985 0.00000 22.80461 5.57501 5.70115 20.38521 47.08540 53.25271 1.00000 0.00000 0.00000 0.00055 150.00000 0.13197
0.15893 1.64534 0.55219 5.26996 5.82249 0.00000 22.76554 5.56290 5.69139 20.14096 46.97054 53.09430 1.00000 0.00000 0.00000 0.00035 150.00000 0.08417
0.16224 1.65099 0.54651 5.26841 5.81514 0.00000 22.72648 5.55080 5.68162 19.89979 46.85455 52.93589 1.00000 0.00000 0.00000 0.00022 150.00000 0.05277
0.16555 1.65667 0.54090 5.26626 5.80730 0.00000 22.68469 5.53949 5.67117 19.65929 46.74002 52.76757 1.00000 0.00000 0.00000 0.00014 150.00000 0.03251
0.16886 1.66234 0.53535 5.26385 5.79928 0.00000 22.64190 5.52846 5.66047 19.42097 46.62560 52.59563 1.00000 0.00000 0.00000 0.00008 150.00000 0.01969
0.17217 1.66803 0.52987 5.26135 5.79127 0.00000 22.59911 5.51744 5.64978 19.18568 46.51054 52.42370 1.00000 0.00000 0.00000 0.00005 150.00000 0.01172
0.17548 1.67382 0.52445 5.25878 5.78325 0.00000 22.55631 5.50641 5.63908 18.95337 46.39491 52.25176 1.00000 0.00000 0.00000 0.00003 150.00000 0.00686
0.17880 1.67967 0.51909 5.25607 5.77517 0.00000 22.51313 5.49533 5.62828 18.72368 46.27768 52.07843 1.00000 0.00000 0.00000 0.00002 150.00000 0.00395
0.18211 1.68556 0.51378 5.25272 5.76652 0.00000 22.46667 5.48380 5.61667 18.49423 46.15120 51.89365 1.00000 0.00000 0.00000 0.00001 150.00000 0.00223
0.18542 1.69149 0.50854 5.24932 5.75786 0.00000 22.42022 5.47227 5.60505 18.26770 46.02428 51.70887 1.00000 0.00000 0.00000 0.00001 150.00000 0.00124
0.18873 1.69743 0.50336 5.24585 5.74921 0.00000 22.37376 5.46074 5.59344 18.04408 45.89696 51.52409 1.00000 0.00000 0.00000 0.00000 150.00000 0.00068
0.19204 1.70336 0.49824 5.24232 5.74056 0.00000 22.32731 5.44921 5.58183 17.82331 45.76925 51.33931 1.00000 0.00000 0.00000 0.00000 150.00000 0.00036
0.19535 1.70927 0.49317 5.23843 5.73161 0.00000 22.27912 5.43700 5.56978 17.60400 45.63281 51.14865 1.00000 0.00000 0.00000 0.00000 150.00000 0.00019
0.19866 1.71515 0.48816 5.23418 5.72234 0.00000 22.22907 5.42405 5.55727 17.38606 45.48712 50.95173 1.00000 0.00000 0.00000 0.00000 150.00000 0.00010
0.20197 1.72103 0.48321 5.22986 5.71307 0.00000 22.17903 5.41110 5.54476 17.17092 45.34111 50.75480 1.00000 0.00000 0.00000 0.00000 150.00000 0.00005
0.20528 1.72690 0.47831 5.22549 5.70380 0.00000 22.12899 5.39815 5.53225 16.95856 45.19480 50.55788 1.00000 0.00000 0.00000 0.00000 150.00000 0.00003
0.20860 1.73278 0.47347 5.22106 5.69453 0.00000 22.07894 5.38520 5.51974 16.74893 45.04819 50.36095 1.00000 0.00000 0.00000 0.00000 150.00000 0.00001
0.21191 1.73866 0.46868 5.21607 5.68475 0.00000 22.02587 5.37196 5.50647 16.53973 44.89451 50.15419 1.00000 0.00000 0.00000 0.00000 150.00000 0.00001
0.21522 1.74453 0.46395 5.21094 5.67489 0.00000 21.97229 5.35868 5.49307 16.33288 44.73946 49.94582 1.00000 0.00000 0.00000 0.00000 150.00000 0.00000
0.21853 1.75040 0.45927 5.20576 5.66503 0.00000 21.91872 5.34540 5.47968 16.12871 44.58417 49.73744 1.00000 0.00000 0.00000 0.00000 150.00000 0.00000
0.22184 1.75627 0.45464 5.20052 5.65517 0.00000 21.86515 5.33211 5.46629 15.92719 44.42865 49.52906 1.00000 0.00000 0.00000 0.00000 150.00000 0.00000
0.22515 1.76218 0.45007 5.19510 5.64517 0.00000 21.81076 5.31868 5.45269 15.72770 44.27050 49.31815 1.00000 0.00000 0.00000 0.00000 150.00000 0.00000
0.22846 1.76816 0.44554 5.18919 5.63474 0.00000 21.75371 5.30474 5.43843 15.52890 44.10428 49.09897 1.00000 0.00000 0.00000 0.00000 150.00000 0.00000
0.23177 1.77416 0.44107 5.18323 5.62430 0.00000 21.69665 5.29081 5.42416 15.33270 43.93788 48.87979 1.00000 0.00000 0.00000 0.00000 150.00000 0.00000
0.23508 1.78012 0.43665 5.17722 5.61387 0.00000 21.63959 5.27687 5.40990 15.13906 43.77133 48.66061 1.00000 0.00000 0.00000 0.00000 150.00000 0.00000
0.23839 1.78598 0.43228 5.17116 5.60343 0.00000 21.58254 5.26294 5.39563 14.94796 43.60463 48.44143 1.00000 0.00000 0.00000 0.00000 150.00000 0.00000
0.24171 1.79169 0.42795 5.16471 5.59266 0.00000 21.52339 5.24846 5.38085 14.75792 43.43045 48.21608 1.00000 0.00000 0.00000 0.00000 150.00000 0.00000
0.24502 1.79719 0.42368 5.15800 5.58168 0.00000 21.46289 5.23363 5.36572 14.56946 43.25147 47.98676 1.00000 0.00000 0.00000 0.00000 150.00000 0.00001
0.24833 1.80251 0.41945 5.15124 5.57069 0.00000 21.40240 5.21880 5.35060 14.38348 43.07241 47.75745 1.00000 0.00000 0.00000 0.00000 150.00000 0.00002
0.25164 1.80770 0.41528 5.14443 5.55971 0.00000 21.34190 5.20397 5.33548 14.19995 42.89327 47.52814 1.00000 0.00000 0.00000 0.00000 150.00000 0.00006
0.25495 1.81277 0.41114 5.13758 5.54872 0.00000 21.28141 5.18914 5.32035 14.01884 42.71407 47.29883 1.00000 0.00000 0.00000 0.00000 150.00000 0.00016
0.25826 1.81774 0.40706 5.13017 5.53723 0.00000 21.21764 5.17358 5.30441 13.83797 42.52455 47.06045 1.00000 0.00000 0.00000 0.00000 150.00000 0.00039
0.26157 1.82262 0.40302 5.12270 5.52573 0.00000 21.15382 5.15801 5.28845 13.65946 42.33486 46.82193 1.00000 0.00000 0.00000 0.00000 150.00000 0.00087
0.26488 1.82742 0.39903 5.11519 5.51423 0.00000 21.09000 5.14244 5.27250 13.48332 42.14514 46.58341 1.00000 0.00000 0.00000 0.00001 150.00000 0.00185
0.26819 1.83218 0.39508 5.10763 5.50272 0.00000 21.02617 5.12686 5.25654 13.30952 41.95541 46.34488 1.00000 0.00000 0.00000 0.00002 150.00000 0.00374
0.27151 1.83694 0.39118 5.09985 5.49105 0.00000 20.96121 5.11118 5.24030 13.13729 41.76334 46.10344 1.00000 0.00000 0.00000 0.00003 150.00000 0.00715
0.27482 1.84164 0.38732 5.09170 5.47907 0.00000 20.89422 5.09531 5.22356 12.96610 41.56717 45.85680 1.00000 0.00000 0.00000 0.00005 150.00000 0.01294
0.27813 1.84623 0.38350 5.08351 5.46710 0.00000 20.82723 5.07943 5.20681 12.79719 41.37094 45.61015 1.00000 0.00000 0.00000 0.00009 150.00000 0.02218
0.28144 1.85064 0.37973 5.07524 5.45512 0.00000 20.76024 5.06356 5.19006 12.63052 41.17463 45.36351 1.00000 0.00000 0.00000 0.00015 150.00000 0.03598
0.28475 1.85481 0.37600 5.06692 5.44314 0.00000 20.69325 5.04769 5.17331 12.46608 40.97821 45.11687 1.00000 0.00000 0.00000 0.00023 150.00000 0.05524
0.28806 1.85868 0.37231 5.05821 5.43085 0.00000 20.62406 5.02058 5.15601 12.30251 40.68806 44.86507 1.00000 0.00000 0.00000 0.00033 150.00000 0.08030
0.29137 1.86234 0.36866 5.04932 5.41844 0.00000 20.55407 4.98942 5.13852 12.14065 40.36455 44.61141 1.00000 0.00000 0.00000 0.00046 150.00000 0.11051
0.29468 1.86581 0.36506 5.04038 5.40603 0.00000 20.48408 4.95827 5.12102 11.98097 40.04151 44.35775 1.00000 0.00000 0.00000 0.00060 150.00000 0.14396
0.29799 1.86915 0.36149 5.03140 5.39363 0.00000 20.41408 4.92712 5.10352 11.82342 39.71902 44.10409 1.00000 0.00000 0.00000 0.00074 150.00000 0.17753
0.30130 1.87238 0.35797 5.02235 5.38118 0.00000 20.34378 4.89768 5.08595 11.66780 39.41070 43.84979 1.00000 0.00000 0.00000 0.00086 150.00000 0.20726
0.30462 1.87553 0.35448 5.01295 5.36839 0.00000 20.27098 4.88198 5.06775 11.51285 39.21089 43.59031 1.00000 0.00000 0.00000 0.00095 150.00000 0.22905
0.30793 1.87867 0.35103 5.00357 5.35560 0.00000 20.19819 4.86628 5.04955 11.35999 39.01161 43.33082 1.00000 0.00000 0.00000 0.00100 150.00000 0.23964
0.31124 1.88181 0.34763 4.99420 5.34281 0.00000 20.12539 4.85058 5.03135 11.20918 38.81292 43.07134 1.00000 0.00000 0.00000 0.00099 150.00000 0.23734
0.31455 1.88488 0.34426 4.98484 5.33002 0.00000 20.05259 4.83489 5.01315 11.06040 38.61481 42.81186 1.00000 0.00000 0.00000 0.00093 150.00000 0.22253
0.31786 1.88776 0.34093 4.97532 5.31707 0.00000 19.97853 4.81968 4.99463 10.91293 38.41993 42.55012 1.00000 0.00000 0.00000 0.00082 150.00000 0.19751
0.32117 1.89039 0.33763 4.96563 5.30395 0.00000 19.90312 4.80501 4.97578 10.76672 38.22831 42.28600 1.00000 0.00000 0.00000 0.00069 150.00000 0.16595
0.32448 1.89268 0.33438 4.95591 5.29084 0.00000 19.82772 4.79033 4.95693 10.62248 38.03694 42.02188 1.00000 0.00000 0.00000 0.00055 150.00000 0.13200
0.32779 1.89482 0.33116 4.94615 5.27772 0.00000 19.75231 4.77565 4.93808 10.48020 37.84570 41.75776 1.00000 0.00000 0.00000 0.00041 150.00000 0.09940
0.33110 1.89681 0.32797 4.93633 5.26460 0.00000 19.67691 4.76098 4.91923 10.33984 37.65451 41.49364 1.00000 0.00000 0.00000 0.00029 150.00000 0.07085
0.33441 1.89861 0.32483 4.92622 5.25125 0.00000 19.59947 4.74913 4.89987 10.20031 37.48387 41.22662 1.00000 0.00000 0.00000 0.00020 150.00000 0.04781
0.33773 1.90017 0.32172 4.91602 5.23786 0.00000 19.52170 4.73773 4.88042 10.06250 37.31646 40.95914 1.00000 0.00000 0.00000 0.00013 150.00000 0.03054
0.34104 1.90143 0.31864 4.90576 5.22447 0.00000 19.44393 4.72633 4.86098 9.92656 37.14899 40.69166 1.00000 0.00000 0.00000 0.00008 150.00000 0.01847
0.34435 1.90251 0.31560 4.89544 5.21108 0.00000 19.36616 4.71494 4.84154 9.79246 36.98150 40.42419 1.00000 0.00000 0.00000 0.00004 150.00000 0.01057
0.34766 1.90350 0.31259 4.88503 5.19764 0.00000 19.28789 4.70171 4.82197 9.65994 36.79934 40.15623 1.00000 0.00000 0.00000 0.00002 150.00000 0.00573
0.35097 1.90434 0.30961 4.87442 5.18405 0.00000 19.20803 4.68258 4.80201 9.52842 36.57002 39.88675 1.00000 0.00000 0.00000 0.00001 150.00000 0.00294
0.35428 1.90501 0.30667 4.86378 5.17046 0.00000 19.12817 4.66345 4.78204 9.39869 36.34106 39.61727 1.00000 0.00000 0.00000 0.00001 150.00000 0.00143
0.35759 1.90547 0.30377 4.85309 5.15686 0.00000 19.04832 4.64432 4.76208 9.27072 36.11249 39.34779 1.00000 0.00000 0.00000 0.00000 150.00000 0.00066
0.36090 1.90584 0.30089 4.84237 5.14327 0.00000 18.96846 4.62519 4.74211 9.14449 35.88431 39.07830 1.00000 0.00000 0.00000 0.00000 150.00000 0.00029
0.36421 1.90616 0.29805 4.83154 5.12959 0.00000 18.88749 4.60565 4.72187 9.01945 35.65275 38.80841 1.00000 0.00000 0.00000 0.00000 150.00000 0.00012
0.36753 1.90641 0.29524 4.82061 5.11585 0.00000 18.80583 4.58585 4.70146 8.89579 35.41922 38.53825 1.00000 0.00000 0.00000 0.00000 150.00000 0.00005
0.37084 1.90656 0.29246 4.80966 5.10212 0.00000 18.72417 4.56605 4.68104 8.77381 35.18616 38.26809 1.00000 0.00000 0.00000 0.00000 150.00000 0.00002
0.37415 1.90655 0.28971 4.79867 5.08839 0.00000 18.64251 4.54625 4.66063 8.65349 34.95356 37.99794 1.00000 0.00000 0.00000 0.00000 150.00000 0.00001
0.37746 1.90619 0.28700 4.78766 5.07465 0.00000 18.56085 4.52645 4.64021 8.53481 34.72144 37.72778 1.00000 0.00000 0.00000 0.00000 150.00000 0.00000
0.38077 1.90555 0.28431 4.77654 5.06086 0.00000 18.47772 4.50604 4.61943 8.41708 34.48461 37.45832 1.00000 0.00000 0.00000 0.00000 150.00000 0.00000
0.38408 1.90473 0.28166 4.76540 5.04706 0.00000 18.39458 4.48562 4.59865 8.30095 34.24823 37.18886 1.00000 0.00000 0.00000 0.00000 150.00000 0.00000
0.38739 1.90385 0.27903 4.75422 5.03326 0.00000 18.31144 4.46519 4.57786 8.18641 34.01237 36.91941 1.00000 0.00000 0.00000 0.00000 150.00000 0.00000
0.39070 1.90286 0.27644 4.74302 5.01946 0.00000 18.22830 4.44477 4.55707 8.07343 33.77702 36.64996 1.00000 0.00000 0.00000 0.00000 150.00000 0.00000
0.39401 1.90158 0.27387 4.73179 5.00566 0.00000 18.14474 4.42455 4.53618 7.96181 33.54375 36.38124 1.00000 0.00000 0.00000 0.00000 150.00000 0.00000
0.39732 1.90010 0.27133 4.72054 4.99187 0.00000 18.06045 4.40469 4.51511 7.85139 33.31373 36.11383 1.00000 0.00000 0.00000 0.00000 150.00000 0.00000
0.40064 1.89855 0.26882 4.70926 4.97808 0.00000 17.97616 4.38482 4.49404 7.74249 33.08423 35.84642 1.00000 0.00000 0.00000 0.00000 150.00000 0.00000
0.40395 1.89698 0.26634 4.69795 4.96429 0.00000 17.89187 4.36496 4.47297 7.63507 32.85525 35.57901 1.00000 0.00000 0.00000 0.00000 150.00000 0.00000
0.40726 1.89533 0.26389 4.68661 4.95050 0.00000 17.80758 4.34509 4.45189 7.52912 32.62679 35.31160 1.00000 0.00000 0.00000 0.00000 150.00000 0.00000
0.41057 1.89358 0.26146 4.67531 4.93677 0.00000 17.72269 4.32462 4.43067 7.42437 32.39473 35.04661 1.00000 0.00000 0.00000 0.00000 150.00000 0.00000
0.41388 1.89174 0.25907 4.66400 4.92306 0.00000 17.63759 4.30393 4.40940 7.32096 32.16176 34.78249 1.00000 0.00000 0.00000 0.00000 150.00000 0.00000
0.41719 1.88981 0.25670 4.65266 4.90935 0.00000 17.55249 4.28324 4.38812 7.21896 31.92935 34.51837 1.00000 0.00000 0.00000 0.00000 150.00000 0.00000
0.42050 1.88776 0.25435 4.64129 4.89565 0.00000 17.46739 4.26255 4.36685 7.11836 31.69751 34.25425 1.00000 0.00000 0.00000 0.00000 150.00000 0.00000
0.42381 1.88558 0.25203 4.62992 4.88196 0.00000 17.38224 4.24189 4.34556 7.01912 31.46659 33.99063 1.00000 0.00000 0.00000 0.00000 150.00000 0.00000
0.42712 1.88334 0.24974 4.61866 4.86840 0.00000 17.29667 4.22147 4.32417 6.92106 31.23893 33.73096 1.00000 0.00000 0.00000 0.00000 150.00000 0.00000
